ID	X	Y
0	100.0000	0.0000
1	90.0969	43.3884
2	62.3490	78.1832
3	22.2521	97.4928
4	-22.2521	97.4928
5	-62.3490	78.1832
6	-90.0969	43.3884
7	-100.0000	-0.0000
8	-90.0969	-43.3884
9	-62.3490	-78.1832
10	-22.2521	-97.4928
11	22.2521	-97.4928
12	62.3490	-78.1832
13	90.0969	-43.3884
